t,angle
0,72.2922389451904
0.05,69.9631159659891
0.1,62.172900448457
0.15,49.183990569266
0.2,31.8827792299433
0.25,11.6000402050274
0.3,-9.2869005395739
0.35,-29.4500598332113
0.4,-46.1414326842752
0.45,-59.836912630263
0.5,-67.7628438856682
0.55,-71.2855936453791
0.6,-69.3632696829951
0.65,-62.0443341626957
0.7,-49.6820889360994
0.75,-32.9878984523079
0.8,-13.5028787637844
0.85,7.30453774835691
0.9,27.6160174411259
0.95,44.9020170923561
1,59.4595786385872
1.05,67.7507813202008
1.1,71.6746932301688
1.15,68.7110807121615
1.2,63.3500622343211
1.25,49.7945445873179
1.3,33.2675210613506
1.35,13.6048488003262
1.4,-6.72112363556432
1.45,-27.7909943606916
1.5,-45.5624237167719
1.55,-58.483995930457
1.6,-67.7003320718118
1.65,-70.6621914556852
1.7,-69.9335174429088
1.75,-62.8535190078895
1.8,-51.0340477848431
1.85,-34.8602887148097
1.9,-15.9195668040553
1.95,6.32233787764799
2,26.0859382698359
2.05,42.6882879059802
2.1,57.5910451838051
2.15,66.8669103957595
2.2,71.4648832350036
2.25,70.1099406692184
2.3,63.1455877610675
2.35,51.8772583915482
2.4,36.2434387165397
2.45,16.870020118985
2.5,-3.85454988389439
2.55,-23.8368172621309
2.6,-42.7263850274286
2.65,-55.8521705536722
2.7,-66.4217363213462
2.75,-71.6579674911392
2.8,-68.8576456723851
2.85,-64.435358531424
2.9,-51.9737606131605
2.95,-36.9278474850689
3,-17.8035797186108
3.05,3.9507923460609
3.1,24.0172789553594
3.15,42.4590447934567
3.2,55.8492788567225
3.25,65.4967997113973
3.3,71.1399259925829
3.35,68.9670188587345
3.4,63.8129574319622
3.45,52.5341279534718
3.5,36.4218768713451
3.55,18.9165991735724
3.6,-1.9062192803145
3.65,-22.7014191696278
3.7,-41.6759167110078
3.75,-56.3195382790168
3.8,-64.8367282507264
3.85,-70.6150907236199
3.9,-69.1769603881317
3.95,-64.7927513889555
4,-53.6254662501869
4.05,-36.829940049106
4.1,-18.9357546447881
4.15,1.59309889589419
4.2,22.7013795885376
4.25,40.5611346259965
4.3,54.0163635971281
4.35,64.7053390425582
4.4,70.1709048552487
4.45,69.5780528039708
4.5,63.751881861476
4.55,52.4583235988077
4.6,38.3205560035924
4.65,19.0768086648506
4.7,-1.2149865910208
4.75,-20.3839939455261
4.8,-40.402229811233
4.85,-55.3123449139042
4.9,-64.0617113970988
4.95,-69.1819353911573
5,-69.3068247326267
5.05,-64.5936000882289
5.1,-53.769572719979
5.15,-38.1773727279133
5.2,-19.4468897121742
5.25,0.645198273337202
5.3,20.3660463464206
5.35,39.3701592811162
5.4,54.6432436266128
5.45,64.646755867769
5.5,69.3772891078619
5.55,68.7694930349971
5.6,64.137284769521
5.65,54.0201364241809
5.7,37.7997465681286
5.75,21.1303047063975
5.8,-0.450676025349587
5.85,-20.7380297921715
5.9,-39.2915024372769
5.95,-53.3458368582906
6,-63.8305705990777
6.05,-68.3868688583108
6.1,-68.7907383256501
6.15,-64.1222289772842
6.2,-53.2935238901433
6.25,-38.0568429827716
6.3,-20.00563453666
6.35,-0.658022725930233
6.4,19.4635023171425
6.45,37.637078661161
6.5,53.7667041298561
6.55,63.3856546426
6.6,68.3517790061088
6.65,68.5812521648315
6.7,64.5157448227883
6.75,53.5258224688423
6.8,37.7362607111636
6.85,20.8612528597489
6.9,-0.700454422870041
6.95,-20.5266844494021
7,-38.6524911228187
7.05,-53.3849736032316
7.1,-62.594714408639
7.15,-69.0595266518405
7.2,-68.4181668070366
7.25,-63.5789754157238
7.3,-53.3498324281639
7.35,-37.6277923430881
7.4,-21.3110656754672
7.45,-0.0326089774812017
7.5,20.7269801313131
7.55,37.3533146189461
7.6,53.7859725372063
7.65,62.8737276288524
7.7,68.9961646814073
7.75,69.486185774794
7.8,64.0496070091181
7.85,53.77406513819
7.9,38.9305984197804
7.95,19.3923242024415
8,-0.0618322126386541
8.05,-20.0870002637561
8.1,-38.7812703953408
8.15,-52.1581779519437
8.2,-64.1612684739841
8.25,-67.5862019358874
8.3,-69.134915728645
8.35,-62.3126760701345
8.4,-52.7138107370282
8.45,-38.0367930930938
8.5,-20.3816951376613
8.55,0.853247515131057
8.6,20.0037140068025
8.65,38.7075654212465
8.7,52.9140423308169
8.75,63.2145536893793
8.8,68.9899741812896
8.85,68.0259994246125
8.9,62.171472198413
8.95,52.1351684871368
9,36.7133709054962
9.05,19.0325914315189
9.1,0.34745416331822
9.15,-20.7960101645424
9.2,-37.5554369656606
9.25,-53.798355255373
9.3,-62.5852895943333
9.35,-69.1250822929811
9.4,-68.2316765975695
9.45,-62.004294371317
9.5,-51.8826239890851
9.55,-37.84555474754
9.6,-18.1892615297084
9.65,1.07496716711824
9.7,20.6281648535927
9.75,38.6225919138076
9.8,52.7799872983595
9.85,63.0521740059896
9.9,67.3935562444023
9.95,68.0610453649066
10,62.1044892542694
10.05,52.0109112075641
10.1,36.3437296222191
10.15,17.8822917200267
10.2,-0.93983870699181
10.25,-22.1914093457024
10.3,-38.4932244189838
10.35,-52.4762700134013
10.4,-62.3081330470951
10.45,-67.3290136173331
10.5,-67.6623251542458
10.55,-60.9790436105296
10.6,-50.071491361643
10.65,-35.5714080953137
10.7,-17.1252212707984
10.75,2.09786766147907
10.8,21.3466521153427
10.85,40.150607228013
10.9,53.8827504510967
10.95,64.0114353686486
11,68.3669843312738
11.05,66.5549467144673
11.1,61.9086286186214
11.15,51.0602942011992
11.2,34.4143334157777
11.25,17.5306799626182
11.3,-4.1711177118608
11.35,-22.2068319789177
11.4,-40.8468813709972
11.45,-53.8665007407247
11.5,-63.3364721235024
11.55,-68.3972647284045
11.6,-66.6180024014703
11.65,-60.078421856587
11.7,-50.2787694130642
11.75,-35.1742780435635
11.8,-15.9393026651539
11.85,4.89873978460792
11.9,24.0985966116091
11.95,41.451227184295
12,55.2801296920942
12.05,63.6848442704112
12.1,66.5798883480836
12.15,66.7291657462866
12.2,59.0805856927258
12.25,48.3031895594004
12.3,33.0065926088222
12.35,15.1177068134082
12.4,-5.50569485594119
12.45,-24.2242970384677
12.5,-41.379195583892
12.55,-55.4327554486709
12.6,-64.0097135929656
12.65,-67.6331982586197
12.7,-65.7196858695747
12.75,-58.6719854249093
12.8,-48.1523013584554
12.85,-32.739581877809
12.9,-13.1957357514383
12.95,5.96136580380053
13,25.9271795316179
13.05,42.1173059941463
13.1,54.9919710028766
13.15,63.8273879086596
13.2,66.4946164648209
13.25,66.4331146403911
13.3,57.7616468175907
13.35,47.1940580916522
13.4,31.5504650213264
13.45,12.1964892967355
13.5,-8.0251725630174
13.55,-26.5432891228723
13.6,-43.2108210685274
13.65,-56.246150605434
13.7,-63.3027938917206
13.75,-68.1792192136975
13.8,-65.0084316874261
13.85,-58.5505492525644
13.9,-44.7895118036449
13.95,-30.3709709803657
14,-11.4950340454595
14.05,8.12058367108244
14.1,28.3268479730108
14.15,43.8918949071021
14.2,57.5692502721939
14.25,64.7596088418845
14.3,67.7989780267415
14.35,65.1330086794677
14.4,56.4187444119232
14.45,45.3829596746428
14.5,28.7025062181727
14.55,10.2554872201843
14.6,-10.5236539661349
14.65,-30.0141636155728
14.7,-44.8586227919173
14.75,-56.4920425531272
14.8,-65.2496167265983
14.85,-66.7759417874429
14.9,-63.9606254644277
14.95,-55.4129196073669
15,-43.3035898998584
15.05,-27.4457945643522
15.1,-8.39898200648813
15.15,11.5378334401479
15.2,31.3481379376162
15.25,45.5677912385423
15.3,57.4631957109286
15.35,63.890327924471
15.4,66.9474454004401
15.45,62.3758610719659
15.5,55.1017882109283
15.55,41.450292614323
15.6,24.3375014456131
15.65,6.51789025379114
15.7,-13.7034750804736
15.75,-31.3994363895538
15.8,-46.5494644713112
15.85,-58.3863860305697
15.9,-65.4678120522146
15.95,-67.0159178026584
16,-61.4344157645657
16.05,-54.4393960397268
16.1,-39.7114376169284
16.15,-22.3183392466193
16.2,-3.77600128724377
16.25,15.0137752789347
16.3,32.5301314957311
16.35,48.5728997259911
16.4,58.5879928882841
16.45,65.2747100781532
16.5,65.7845745853533
16.55,61.9796316153395
16.6,52.2727267754736
16.65,37.8168705292466
16.7,21.1354763547241
16.75,1.39946216029661
16.8,-16.5816291819316
16.85,-34.9581671628238
16.9,-50.4762731410401
16.95,-58.915570144274
17,-65.8491734959877
17.05,-64.8365370375206
17.1,-59.8864287246352
17.15,-50.367881711587
17.2,-36.7003465863781
17.25,-18.4298919030788
17.3,-0.351619596110292
17.35,20.0583896176052
17.4,37.0208263381553
17.45,50.2546924412812
17.5,60.7533461892082
17.55,64.9429403709368
17.6,65.4709660558404
17.65,60.2091515511039
17.7,49.2706035845615
17.75,35.1435343760114
17.8,18.0202143141566
17.85,-2.17457565097171
17.9,-20.731789369107
17.95,-37.4379601235889
18,-51.0203336679678
18.05,-60.6822218479933
18.1,-65.7193784000486
18.15,-64.1632048139457
18.2,-59.1347870591431
18.25,-47.2385175414085
18.3,-32.804074167118
18.35,-15.9548994548597
18.4,5.00987878985781
18.45,23.2143988438725
18.5,40.0242403293524
18.55,53.9209861031867
18.6,62.0129169179279
18.65,65.4526139839828
18.7,63.835320472826
18.75,58.2364818426992
18.8,45.4946664344187
18.85,31.1429403933388
18.9,12.7984356471828
18.95,-5.59888852187119
19,-24.4896154903086
19.05,-41.2276951402608
19.1,-53.3331660473513
19.15,-62.7569009258131
19.2,-64.9639842608244
19.25,-63.555299489662
19.3,-55.9647402151968
19.35,-44.8293640977025
19.4,-29.0712071225144
19.45,-10.3890214679853
19.5,8.04541541218429
19.55,28.0724815102072
19.6,43.6554490741656
19.65,55.1412657634453
19.7,63.076007447588
19.75,64.4464273319349
19.8,62.4118105105946
19.85,55.1575647240085
19.9,42.9738526832282
19.95,26.3572922905468
20,8.25375080239473
20.05,-10.6801979720902
20.1,-30.5716660309294
20.15,-44.3296167027829
20.2,-55.6232073065084
20.25,-62.2504655011814
20.3,-64.1904999112276
20.35,-60.7684618905565
20.4,-52.2160712826413
20.45,-40.3084272937501
20.5,-22.8681639001671
20.55,-4.24081702613951
20.6,14.066086948306
20.65,31.8894778685403
20.7,47.3664745198332
20.75,57.9699580493483
20.8,64.1467961389814
20.85,64.4698783769419
20.9,60.4250237673288
20.95,50.4900454782665
21,37.4727838591675
21.05,21.7674729294366
21.1,1.74911641900903
21.15,-17.0722712529247
21.2,-35.1011150590734
21.25,-49.2804991879743
21.3,-58.7357702300175
21.35,-63.9580189737559
21.4,-64.4856320454462
21.45,-58.8097010264628
21.5,-49.608844813198
21.55,-35.1651075792014
21.6,-18.5542202818461
21.65,0.973646855800646
21.7,19.1694866658183
21.75,36.3947552810997
21.8,50.777758061672
21.85,60.4420188634034
21.9,63.4706379737414
21.95,63.7172576636348
22,58.6126161074404
22.05,48.4109538551602
22.1,33.2314363604632
22.15,16.0449214135152
22.2,-4.0654362085322
22.25,-22.3294200821884
22.3,-39.0076978114684
22.35,-52.276895746671
22.4,-61.0047532376716
22.45,-63.5976720993053
22.5,-63.518593142834
22.55,-56.6809453569026
22.6,-44.5104578036384
22.65,-29.9288716674971
22.7,-11.7420067119109
22.75,7.00842597160328
22.8,24.0561703613434
22.85,39.9391029843675
22.9,52.4824115517589
22.95,60.4833636414292
23,63.6576330443213
23.05,61.7704884421711
23.1,55.2108431269412
23.15,44.0597271132993
23.2,27.0277161832407
23.25,9.18696703544436
23.3,-8.87875862342944
23.35,-27.6057299317931
23.4,-43.4320692569652
23.45,-55.1269097440038
23.5,-62.3883088908968
23.55,-63.6458087377811
23.6,-60.8699565261839
23.65,-52.141816428571
23.7,-41.4812860385018
23.75,-24.6384603868376
23.8,-6.7267177776003
23.85,12.3506221276011
23.9,29.7601388050276
23.95,44.9867348187448
24,57.0369096933226
24.05,62.5934598526967
24.1,64.2845151428568
24.15,59.2231826060047
24.2,50.2647561887019
24.25,37.7288096329871
24.3,20.8465670715008
24.35,3.93160690917202
24.4,-15.2174374307442
24.45,-32.6722326709009
24.5,-46.762088144539
24.55,-57.6165449302131
24.6,-61.8612940352278
24.65,-64.0291537494657
24.7,-58.1020018058496
24.75,-49.0493557835252
24.8,-35.4318585393951
24.85,-18.0515253892348
24.9,0.719633061077417
24.95,19.0401983484854
25,36.4998871447471
25.05,48.7852464245394
25.1,58.2334505512354
25.15,62.0910569021141
25.2,62.7881862333098
25.25,56.511504175454
25.3,45.7932420072111
25.35,32.5197531733442
25.4,15.8613482992789
25.45,-2.88350874816387
25.5,-22.2255640523015
25.55,-38.4525771350312
25.6,-51.6906697010715
25.65,-59.4574219754745
25.7,-63.6176543222262
25.75,-61.8092189627288
25.8,-54.7793495194935
25.85,-43.452965622993
25.9,-28.6236621365157
25.95,-11.4731413203593
26,6.52889972260967
26.05,25.6871410866673
26.1,40.5689535373373
26.15,52.4763764922056
26.2,61.1090731654136
26.25,63.5982687334958
26.3,61.2952056520591
26.35,53.1840880580458
26.4,40.3941864702544
26.45,26.5091346483727
26.5,8.77623847708484
26.55,-10.8724872634412
26.6,-28.2406246427711
26.65,-43.3565138698556
26.7,-55.4338195641503
26.75,-60.1861818009042
26.8,-63.4006023226678
26.85,-60.1346029337625
26.9,-51.2697045505995
26.95,-39.4140253797697
27,-22.3458919938532
27.05,-4.91369091487788
27.1,13.9424861668198
27.15,32.0822405843737
27.2,45.7197525427365
27.25,56.0250269995173
27.3,61.8795250186774
27.35,62.6913704901154
27.4,57.1607411961431
27.45,49.591364096751
27.5,35.4045503840861
27.55,18.2957987138385
27.6,0.34432716355867
27.65,-18.8362106868421
27.7,-34.310166724401
27.75,-48.3023609050627
27.8,-57.9464016789368
27.85,-62.9437517538878
27.9,-60.8186312397715
27.95,-56.1100169014892
28,-47.1881485592234
28.05,-32.0235814828067
28.1,-14.9078262840739
28.15,3.83721354578685
28.2,20.6550560304814
28.25,37.7883622362927
28.3,49.6038734289047
28.35,59.4455696192655
28.4,63.1647169365062
28.45,60.1292047461176
28.5,53.8521115302517
28.55,44.0775760953692
28.6,29.1108830616168
28.65,11.431800086694
28.7,-6.75880994914675
28.75,-25.938752019168
28.8,-39.9745760178147
28.85,-51.7440903525776
28.9,-59.8667584660786
28.95,-61.799514243485
29,-60.4550141733193
29.05,-52.1246663613969
29.1,-41.046860902198
29.15,-25.3542601934504
29.2,-7.23594527225597
29.25,12.1744873335151
29.3,29.113543576751
29.35,43.9824733709521
29.4,55.0674677427102
29.45,60.0778156321974
29.5,60.8905094458786
29.55,57.2785390892463
29.6,50.0651019069134
29.65,37.5484687110157
29.7,20.6701720635542
29.75,2.79908678901082
29.8,-16.1821645281614
29.85,-32.7381040696853
29.9,-46.296592252723
29.95,-55.8531094090096
30,-60.7273717082322
30.05,-61.0046106903943
30.1,-56.0610103429859
30.15,-46.626379441813
30.2,-32.9969680080711
30.25,-16.6875457610549
30.3,0.250239506013082
30.35,19.5796343924806
30.4,35.4345817084565
30.45,48.5656797378928
30.5,57.9454878009246
30.55,60.5709648577548
30.6,60.9123476287673
30.65,55.2106160711861
30.7,44.5047299581164
30.75,29.9132376865958
30.8,13.1177566320765
30.85,-4.65859613593657
30.9,-22.1776633265701
30.95,-38.9589093588876
31,-51.4368722273246
31.05,-58.3742521191577
31.1,-60.5738624394845
31.15,-60.024677453086
31.2,-52.2761626575391
31.25,-40.7900539820431
31.3,-25.7765351199537
31.35,-7.87595788405662
31.4,8.77929335042513
31.45,26.8139721877813
31.5,41.690127333731
31.55,52.7936880252318
31.6,59.1071824238246
31.65,62.1758630622042
31.7,58.2623559155229
31.75,49.6970934174259
31.8,38.0074094175252
31.85,21.7094893332037
31.9,3.98402882142649
31.95,-14.5001733218239
32,-29.7303575266959
32.05,-43.7707122736951
32.1,-55.3744940445202
32.15,-59.9804706470182
32.2,-60.6615001712814
32.25,-55.8198611722268
32.3,-48.3233639612228
32.35,-34.001780933662
32.4,-17.9417703169274
32.45,0.433164847927503
32.5,18.0581040753739
32.55,35.2431624116154
32.6,48.214659073321
32.65,55.7517892023619
32.7,60.0895851477974
32.75,59.8844458796977
32.8,54.8767192383341
32.85,44.9419202699392
32.9,31.0730154507128
32.95,12.9275928282609
33,-4.14988984790044
33.05,-22.6851302915395
33.1,-38.0258811147502
33.15,-50.3322695472651
33.2,-57.3667296268866
33.25,-60.022735956752
33.3,-58.68454748432
33.35,-52.1233327472181
33.4,-41.6045763721649
33.45,-25.7982953148306
33.5,-8.54555186228336
33.55,9.62429273735536
33.6,27.1839375622235
33.65,41.7846310067611
33.7,51.7889036991652
33.75,59.0132206400595
33.8,59.6079787506655
33.85,56.8713215187148
33.9,49.6166869109471
33.95,37.3081262694135
34,22.8267120441825
34.05,3.60363664337336
34.1,-14.3932021139348
34.15,-30.1012054517259
34.2,-43.6109857535687
34.25,-53.6467986621482
34.3,-58.5633866619589
34.35,-60.5508369968004
34.4,-55.2015502477126
34.45,-47.2101460954172
34.5,-34.167692783013
34.55,-17.0890326814437
34.6,0.122532028714827
34.65,17.3723472434046
34.7,34.723557568413
34.75,47.6319901616157
34.8,56.4838400670749
34.85,60.0034675789569
34.9,59.4456825117358
34.95,54.5547516834769
35,44.296194311766
35.05,28.9465417761531
35.1,13.2931290470402
35.15,-6.0241291951966
35.2,-22.8723101188034
35.25,-38.3468022087968
35.3,-49.5121490663227
35.35,-57.9929894927239
35.4,-59.7432287829133
35.45,-58.1545033669566
35.5,-50.9930299907344
35.55,-39.1687919734442
35.6,-25.0459717643059
35.65,-7.0275902741955
35.7,10.6685145197254
35.75,27.1862302849964
35.8,40.4537759013228
35.85,52.8798251122
35.9,57.6863195328049
35.95,60.6192971964747
36,55.5656637732215
36.05,49.2623928831294
36.1,35.1225032730678
36.15,20.4447980988875
36.2,3.12978008620807
36.25,-15.2230508004969
36.3,-31.6062267238752
36.35,-45.0923608615523
36.4,-54.7674127199278
36.45,-59.3293324927007
36.5,-58.6525440774468
36.55,-53.7436406387987
36.6,-44.3566433405909
36.65,-31.2943447132566
36.7,-16.0264461863766
36.75,1.70555207711457
36.8,18.7799448235905
36.85,35.6332927787858
36.9,46.6879622194352
36.95,55.7698824973172
37,59.7792161844443
37.05,57.6162306704924
37.1,51.952519974876
37.15,41.0049162666534
37.2,28.0367433029687
37.25,10.5486646296826
37.3,-7.30597000895986
37.35,-24.3104819119071
37.4,-39.2188821179849
37.45,-50.5314170734623
37.5,-56.8650830775211
37.55,-59.6602593545664
37.6,-57.4824709641159
37.65,-49.0506909350785
37.7,-38.8232156229236
37.75,-22.5795681404489
37.8,-6.27921363014005
37.85,11.3589559381218
37.9,28.4347315439363
37.95,42.7425434767505
38,52.8967527726735
38.05,57.9756346677773
38.1,58.8824707415135
38.15,54.4606988593535
38.2,46.172872966951
38.25,33.6377497800821
38.3,17.4352148581077
38.35,0.237607005442716
38.4,-16.95162199304
38.45,-32.7690046495285
38.5,-45.6657180437197
38.55,-53.8150572992161
38.6,-59.3687527918384
38.65,-57.7554806221806
38.7,-53.7050578279918
38.75,-43.9698334485472
38.8,-29.357433240814
38.85,-12.531789343782
38.9,5.0773425939852
38.95,21.7599215803569
39,36.2694542846279
39.05,49.0937091337815
39.1,55.6492680874835
39.15,59.8177360777193
39.2,57.4658340001852
39.25,49.4938668998701
39.3,39.0318390872771
39.35,24.1928131147147
39.4,7.40681780440887
39.45,-9.09429760249062
39.5,-26.9776228440768
39.55,-40.1241683012847
39.6,-51.7649288439246
39.65,-57.2006720366618
39.7,-59.4681440815888
39.75,-54.7448916629222
39.8,-47.785379446153
39.85,-35.0119839642972
39.9,-20.5279952828119
39.95,-2.22587934226103
40,15.9962299861052
40.05,30.1943452050739
40.1,45.1417796474066
40.15,53.9917042221185
40.2,57.2746157482105
40.25,58.1015238377559
40.3,53.4031587179358
40.35,43.3435642991138
40.4,31.309737583391
40.45,14.3611828714792
40.5,-3.81762627022652
40.55,-20.0528568596193
40.6,-35.3257438168263
40.65,-46.6541682390164
40.7,-55.5987863703814
40.75,-57.650497998934
40.8,-57.1699548631525
40.85,-49.607565186646
40.9,-40.1451420211344
40.95,-25.2397020260547
41,-9.51673252280735
41.05,9.09883120503469
41.1,25.7462221580231
41.15,38.5777113647395
41.2,49.1938980417707
41.25,56.044101376533
41.3,57.3347694930056
41.35,55.6956224637024
41.4,46.8336466877889
41.45,35.2065141843513
41.5,19.9557867683743
41.55,4.06018360219284
41.6,-14.7721274089343
41.65,-29.7190956553267
41.7,-43.2558897590921
41.75,-52.0912466612951
41.8,-57.7184929594711
41.85,-57.594955074899
41.9,-53.4130180617459
41.95,-43.7272843198014
42,-30.6866554526055
42.05,-15.581819273422
42.1,2.61233571482777
42.15,18.4875882602388
42.2,34.9585703473996
42.25,46.6887037262908
42.3,54.8647544952982
42.35,57.5993092418155
